#"Step","Potential Energy (kJ/mole)","Kinetic Energy (kJ/mole)","Total Energy (kJ/mole)","Temperature (K)"
5,25.078069301531976,0.0018855720031053424,25.07995487353508,0.05039598148174303
10,25.078019308667212,0.002592216168616067,25.080611524835827,0.06928257198086525
15,25.07777663500115,0.008857924770184662,25.086634559771333,0.23674715786494394
20,25.07756557301911,0.007416484549864536,25.084982057568975,0.19822155686394397
25,25.07754551705575,0.004278605034692838,25.081824122090442,0.11435495422129806
30,25.07738990457178,0.0026452900884137527,25.080035194660194,0.07070108703883317
35,25.07710319429285,0.006431233388173305,25.083534427681023,0.17188859306426718
40,25.076829624955764,0.00901642027584249,25.085846045231605,0.24098329234027382
45,25.076316812472506,0.012023031855287959,25.088339844327795,0.321341476080268
50,25.07577038833013,0.013761650187918011,25.089532038518048,0.36780980354309784
55,25.074977495516297,0.014387871674038174,25.089365367190336,0.38454692435630833
60,25.07312174174218,0.02161346934347068,25.094735211085652,0.5776666173425974
65,25.069384616189073,0.02373009579544771,25.09311471198452,0.6342380276636715
70,25.062354026997625,0.025982075874565524,25.08833610287219,0.694427055808748
75,25.049891229748646,0.035237783011786435,25.085129012760433,0.9418058059809111
80,25.0282193712229,0.05349062390316759,25.08170999512607,1.4296523745745877
85,24.989657263787105,0.08502732825290439,25.07468459204001,2.272538865139302
90,24.920178351740386,0.14613258903888673,25.066310940779275,3.9057088453553277
95,24.791597233049135,0.2806272967680619,25.0722245298172,7.500370194245372
100,24.56103773752421,0.4696438922808922,25.030681629805102,12.552246670730439
105,24.154363197632268,0.8954579252132238,25.049821122845493,23.933045750788278
110,23.44366197453417,1.5492923764880122,24.99295435102218,41.408182655824824
115,22.29553280352188,2.5608537572479677,24.85638656076985,68.4443438464177
120,20.576597815585686,4.063661190675714,24.6402590062614,108.61011606881068
125,18.21390568851176,6.227710827774971,24.44161651628673,166.4490133674645
130,15.328385720792625,8.692740350147043,24.021126070939665,232.3322477158865
135,12.182787397692497,11.314224086449876,23.497011484142373,302.39705861243823
140,9.034735482847234,13.89177837344412,22.926513856291354,371.287760161687
145,6.089007323970823,16.15848116362887,22.247488487599693,431.870284536591
150,3.4893158416100136,17.90547359485075,21.394789436460766,478.5624278584095
155,1.4251931184810398,18.87182236927099,20.29701548775203,504.39018456055794
160,0.1863229015431308,19.2591165081938,19.44543940973693,514.7414563343206
165,0.057339558555512954,18.169549163121637,18.22688872167715,485.62041738436915
170,1.0906740787334213,16.270056319761355,17.360730398494777,434.8523714009562
175,3.005682762486734,13.73901500432531,16.744697766812045,367.2048294072415
180,5.327912468201023,10.751871603733164,16.07978407193419,287.36697476598204
185,7.6456902844724794,8.034074959214099,15.679765243686578,214.7279935216927
190,9.712607111996263,5.658747498468167,15.37135461046443,151.24224037745705
195,11.418614315645275,3.700025840405395,15.11864015605067,98.89117648541131
200,12.720434966372924,2.1754099917619523,14.895844958134877,58.14252729648172
205,13.652647789926007,1.1377560122868677,14.790403802212875,30.408985088620568
210,14.259827038415853,0.5126913014814863,14.77251833989734,13.702781592407971
215,14.571207763067903,0.18085681548220173,14.752064578550105,4.833788743615987
220,14.602269585720917,0.13486516756797107,14.737134753288888,3.6045626876588313
225,14.363141249153962,0.37971638842239697,14.742857637576359,10.148740036304181
230,13.850894161346723,0.8558420982733927,14.706736259620115,22.874227271538654
235,13.053163811107394,1.6283366783988726,14.681500489506266,43.52081222858926
240,11.948700427784683,2.590122926726869,14.538823354511551,69.2266255734562
245,10.506935420976943,3.920359268473711,14.427294689450655,104.78006290420244
250,8.705858511895782,5.493036280433029,14.198894792328812,146.81325041490862
255,6.599295088766369,7.233585813722767,13.832880902489137,193.33319338354931
260,4.327713731714128,9.083474584447622,13.411188316161748,242.77546346350326
265,2.1859922134866014,10.697253608812694,12.883245822299296,285.9071909677241
270,0.6047514910317968,11.730883582038448,12.335635073070245,313.5331829234126
275,-0.0536641380490947,11.84627736634292,11.792613228293824,316.6173308675585
280,0.24831891178504534,11.036463478340456,11.284782390125502,294.9733068598737
285,1.2236206193231303,9.4075878474731,10.63120846679623,251.4380899633234
290,2.5059475592408154,7.688340710554858,10.194288269795674,205.4874995154492
295,3.8147450606894364,6.021898989976448,9.836644050665884,160.94824779111096
300,4.994898141364274,4.6466337221096925,9.641531863473967,124.19131522223822
305,5.933374221791893,3.41144889582685,9.344823117618743,91.17833479541628
310,6.585194478701454,2.5056548671658017,9.090849345867255,66.96903437119624
315,6.919206240512917,2.008179452779658,8.927385693292575,53.67293020241478
320,6.937572034877908,1.9185264466476368,8.856098481525544,51.27676011218699
325,6.597890954639934,2.1306000917064734,8.728491046346408,56.94488600265916
330,5.890386086678814,2.719822636796754,8.610208723475568,72.69313026068357
335,4.835722945039874,3.643237466752721,8.478960411792595,97.37338463112773
340,3.4934987189875417,4.8140739106422465,8.307572629629789,128.6665156530301
345,2.0428900484999333,5.985622001608281,8.028512050108214,159.97866697902597
350,0.785383121864244,6.869780761684153,7.655163883548397,183.60971815411872
355,0.06386597034853597,7.297495755060261,7.361361725408797,195.0413245049487
360,0.09063153595737963,6.842131376397455,6.932762912354835,182.8707286556561
365,0.7807619530091567,5.880897652253251,6.6616596052624075,157.1796827121341
370,1.8376601226048432,4.654495972506238,6.492156095111081,124.40145083346738
375,2.948162314270588,3.4639044787255817,6.412066792996169,92.5803234651806
380,3.871499043671431,2.381826450715815,6.253325494387246,63.6594526781876
385,4.488233928073635,1.664773207252204,6.153007135325839,44.49465710448228
390,4.750486679563081,1.3049304808161244,6.055417160379205,34.87708357881117
395,4.6783493815245585,1.2964630137750461,5.974812395299605,34.65077224649574
400,4.300470452456505,1.6070732662657412,5.907543718722247,42.95250164573421
405,3.6980084779647777,2.0860384606467526,5.78404693861153,55.75388023359626
410,2.939135152618623,2.7270694437583884,5.666204596377011,72.88681681778074
415,2.1165917264295473,3.349845463190242,5.466437189619789,89.53185009726982
420,1.3180602928654896,3.9735381798696254,5.2915984727351155,106.20138408924022
425,0.6502997025598097,4.420386250047036,5.070685952606846,118.14436321320173
430,0.19202895971370026,4.643001104357925,4.835030064071625,124.09422567241097
435,-0.006031574218033046,4.551341675168296,4.545310100950263,121.64442959543264
440,0.07374504804929101,4.294537922046539,4.36828297009583,114.78079502435699
445,0.4102970100041581,3.804811213633167,4.215108223637325,101.69179174701229
450,0.9445188374883987,3.0848627695854134,4.029381607073812,82.44961568887886
455,1.5854904051734728,2.269693638463168,3.8551840436366405,60.662461250401485
460,2.2515151708979233,1.5716685518042817,3.823183722702205,42.006234236466554
465,2.8537584609502336,0.8902307174894423,3.743989178439676,23.793337342297338
470,3.3101742251006208,0.3706012836916459,3.6807755087922667,9.90511918891222
475,3.574304482762353,0.09204417674325557,3.6663486595056085,2.460079285763684
480,3.6301727821410688,0.03762205130047148,3.6677948334415404,1.0055305220491342
485,3.456528902397333,0.2147602296515801,3.671289132048913,5.739930662266654
490,3.0871546213847383,0.5450508936437178,3.6322055150284562,14.567661535830355
495,2.5770225581965813,0.9841852597867116,3.561207817983293,26.304475270703616
500,1.9756304719511173,1.5445737183492625,3.5202041903003796,41.28206633261495
505,1.3585831916964537,2.029977945122842,3.3885611368192956,54.25554195876661
510,0.7992980219311914,2.429844176526016,3.2291421984572075,64.94283003887229
515,0.3532959217128117,2.7940492356233633,3.147345157336175,74.6769963202973
520,0.0741813353048478,2.9223318807696024,2.99651321607445,78.10562688893737
525,-0.014314108136046277,2.8911232345311504,2.876809126395104,77.27150845945653
530,0.08392768953821825,2.625909343698312,2.7098370332365302,70.1830948061456
535,0.3391411668855045,2.332512619810054,2.6716537866955585,62.34143411139319
540,0.7000910783980265,1.8387129869619971,2.538804065360024,49.14357313779033
545,1.1019853215230606,1.3363682995625321,2.438353621085593,35.71732713819851
550,1.4907536378932114,0.8881716598680104,2.3789252977612216,23.73830458322549
555,1.807746738160024,0.5198544091461557,2.3276011473061797,13.894231105142513
560,2.0222458069090314,0.27451715647498676,2.296762963384018,7.337063507174529
565,2.124210564285829,0.18464742233837164,2.3088579866242007,4.935100893252011
570,2.113338440902014,0.18438853714264813,2.297726978044662,4.928181627634951
575,1.9901030579546761,0.27687250503438104,2.266975562989057,7.400015281058951
580,1.7690390355104262,0.47359728739493573,2.242636322905362,12.657909687909964
585,1.4643230540089114,0.785928117360005,2.2502511713689164,21.005625233736133
590,1.116160855798122,1.0718301302408206,2.1879909860389426,28.64697360070681
595,0.7623027339093714,1.369384647256322,2.1316873811656936,36.59976029070119
600,0.4436947581607297,1.6073590050754587,2.0510537632361885,42.96013863214439
605,0.1910563904411187,1.8288976042436313,2.0199539946847502,48.881235849743874
610,0.03408886283546096,1.8809978860599554,1.9150867488954164,50.273728331221584
615,-0.015355970065723704,1.8353600365770832,1.8200040665113595,49.053958301958524
620,0.04493541305337155,1.7209067378058458,1.7658421508592173,45.99494686357251
625,0.2013522354168805,1.4912886079793912,1.6926408433962716,39.85790675078506
630,0.42708994645877957,1.2012762712039844,1.628366217662764,32.10670110626961
635,0.6898191221090254,0.8796407476374126,1.5694598697464381,23.510297541284082
640,0.9461146182531606,0.5684670253668298,1.5145816436199904,15.193508196020757
645,1.1653926020394376,0.34161937531951697,1.5070119773589545,9.130515134958316
650,1.3230667976253172,0.1639692395497543,1.4870360371750715,4.382431827750916
655,1.3994691119559772,0.08181389870408265,1.4812830106600599,2.186653024784968
660,1.3826111981350353,0.0844605485277316,1.467071746662767,2.2573904536827283
665,1.2792510896576634,0.17772378685783705,1.4569748765155004,4.750051791500013
670,1.09630542680945,0.3952671588125408,1.491572585621991,10.564367938775082
675,0.8538357316141433,0.6391542216005828,1.492989953214726,17.082776082118833
680,0.5967675347634439,0.833764893728551,1.430532428491995,22.284166330042837
685,0.3513987395808921,1.0547609418607546,1.4061596814416468,28.190762700198377
690,0.15184411581672422,1.2060601396324335,1.3579042554491578,32.234560315217436
695,0.025114147984574675,1.2544269466109608,1.2795410945955354,33.52726762356026
700,-0.016653012938115178,1.2176899674270012,1.201036954488886,32.54539256410831
705,0.024665319546541116,1.1023777287235672,1.1270430482701084,29.46342410215298
710,0.1366981884948559,0.9358844611585994,1.0725826496534552,25.01353217799386
715,0.29768783148715755,0.742534802290934,1.0402226337780915,19.84584523114232
720,0.4801533586814267,0.5097898569965882,0.9899432156780149,13.625234226255728
725,0.6581563463468202,0.3273392222999121,0.9854955686467323,8.748847224134833
730,0.8087400802394409,0.1777962506128932,0.986536330852334,4.751988541755051
735,0.9140286713845027,0.07925054607356594,0.9932792174580687,2.118141893157034
740,0.9525377508696143,0.03924266270545472,0.9917804135750691,1.0488448596719517
745,0.9199335211818915,0.0632201602446406,0.9831536814265321,1.6896952329132229
750,0.8349660113341735,0.1356890949249587,0.9706551062591322,3.6265839245867593
755,0.7009222488451812,0.27508923708964944,0.9760114859348306,7.352353596343822
760,0.5393806791987107,0.4130051724972432,0.9523858516959539,11.03845463909995
765,0.3716902127288554,0.579776060769703,0.9514662734985584,15.495766575865682
770,0.2166430514376797,0.6872254827405644,0.9038685341782441,18.367584290039176
775,0.09454695355477047,0.7715318052196372,0.8660787587744077,20.6208527196998
780,0.014481505445658429,0.8330170594404906,0.847498564886149,22.26417884461643
785,-0.016754248994615493,0.830382731271402,0.8136284822767865,22.19377073853107
790,0.0019808606329776088,0.7561401123230211,0.7581209729559988,20.20947650658618
795,0.061434309403406634,0.621618351154413,0.6830526605578197,16.614092096136865
800,0.14771662634318572,0.5078597322144518,0.6555763585576375,13.573647475594493
805,0.24804593040380904,0.3858651960855727,0.6339111264893817,10.313080192298154
810,0.34514809989283457,0.2654354211301088,0.6105835210229433,7.094334528642389
815,0.42784956101846966,0.17329185185696142,0.6011414128754311,4.631598762994827
820,0.48447077151549717,0.1095524398939562,0.5940232114094534,2.928025407188408
825,0.5105012662976363,0.07570307829846454,0.5862043445961008,2.0233281602385027
830,0.5031737365246264,0.0822551183568365,0.5854288548814629,2.1984455723052667
835,0.469073218413255,0.11154670598385752,0.5806199243971125,2.981326472738181
840,0.40636172229358175,0.18305644794345932,0.5894181702370411,4.892578668689978
845,0.31973669824177176,0.25285312709380764,0.5725898253355794,6.758045563698602
850,0.2283433946034621,0.3116372186181663,0.5399806132216284,8.329177285533548
855,0.14003494735468885,0.3926341062835571,0.5326690536382459,10.493993926924785
860,0.0647431168646308,0.46403588225634407,0.5287789991209748,12.402360498852033
865,0.011482920281960591,0.4819196843183311,0.49340260460029167,12.880343708220199
870,-0.013736430873762239,0.49971823394777976,0.4859818030740175,13.356048362325348
875,-0.009300412904355966,0.479865436609642,0.470565023705286,12.825439504447811
880,0.021772667680421593,0.4241851599440605,0.44595782762448205,11.337263933790377
885,0.0725492988584895,0.31842131563502307,0.39097061449351256,8.510496920672807
890,0.13330675859605384,0.2346282065953316,0.36793496519138547,6.270945227866915
895,0.19614592442033313,0.16651917382236694,0.3626650982427001,4.450584324802534
900,0.24901422662157774,0.09387256228140257,0.3428867889029803,2.5089468355417845
905,0.2832026775822822,0.04191041701632517,0.3251130945986074,1.12014635154129
910,0.2971908991080744,0.02921268486950211,0.3264035839775765,0.7807720539395251
915,0.29190636552455534,0.03830245114839445,0.33020881667294977,1.0237156765166568
920,0.26754353036556305,0.06494308294633461,0.33248661331189766,1.735744060762835
925,0.22906657533365127,0.10191503270204429,0.33098160803569554,2.7238992158903605
930,0.17947018965656295,0.155360132245534,0.33483032190209694,4.152334853695672
935,0.12350875662102344,0.21533750050183917,0.3388462571228626,5.755359471684535
940,0.07170004493995405,0.24377815821788182,0.31547820315783587,6.515497433653524
945,0.029868266843958075,0.26653953711369793,0.296407803957656,7.123844411357562
950,0.0006895854516064323,0.27774886011563915,0.27843844556724556,7.423437762074674
955,-0.013798436169763381,0.28909711635684754,0.27529868018708414,7.726744403475873
960,-0.01203939072733941,0.2748998797454724,0.262860489018133,7.3472926126238365
965,0.005068851650817262,0.23550167390499704,0.24057052555581432,6.294290526954042
970,0.03248833807442389,0.16925380123733996,0.20174213931176385,4.523673144713671
975,0.06500864979030412,0.1319194265544284,0.19692807634473253,3.5258314011717493
980,0.10133662062185426,0.10459419496476909,0.20593081558662335,2.795505609895204
985,0.13660722824390073,0.0751611628668444,0.21176839111074514,2.0088443006926346
990,0.16565950513369715,0.04881195754307602,0.21447146267677317,1.304604917965074
995,0.18467083348129046,0.03228361022563019,0.21695444370692066,0.8628491621721296
1000,0.1897055003298979,0.02078292141081226,0.21048842174071017,0.5554684312404382
1005,0.18041676035573467,0.037753030433645404,0.2181697907893801,1.0090312220802424
1010,0.15944060610105062,0.05203484700098151,0.21147545310203214,1.3907435948073372
1015,0.1301651728812308,0.08836496793506327,0.21853014081629407,2.3617444893943267
1020,0.09453324987330772,0.13847658571461202,0.23300983558791974,3.701085632283174
1025,0.05816050177173358,0.17481992729837625,0.23298042907010985,4.6724398772675375
1030,0.02638268377784553,0.20893299000803095,0.23531567378587648,5.584185105649173
1035,0.0008269485115849039,0.2494110972656243,0.2502380457772092,6.666049887482018
1040,-0.013748542293621345,0.250166051831271,0.23641750953764964,6.68622767769487
1045,-0.015509812551833467,0.237698128164974,0.2221883156131405,6.35299550773918
1050,-0.005511070781310414,0.21794626773220158,0.21243519695089116,5.825084406513332
1055,0.013629975802187538,0.18146513772936518,0.1950951135315527,4.850047468635499
1060,0.03815191639667709,0.14827938828629209,0.18643130468296917,3.9630866887572678
1065,0.06529863251274891,0.109876200207136,0.1751748327198849,2.9366786003418177
1070,0.09054536526669202,0.07760365401569269,0.1681490192823847,2.074125148363241
1075,0.11142921430736306,0.04996272717786963,0.1613919414852327,1.3353617202029628
1080,0.12756117712874473,0.03477355182230016,0.1623347289510449,0.9293982254748004
1085,0.13670287621880076,0.026442624208868743,0.1631455004276695,0.7067362040612509
1090,0.13635000742513162,0.023727421199139044,0.16007742862427066,0.6341665433046438
1095,0.12815338390453895,0.04132060042880256,0.16947398433334152,1.104382230217118
1100,0.11036281710181034,0.05083313322982558,0.16119595033163592,1.35862520057058
1105,0.08637209409572104,0.07544718717119105,0.16181928126691209,2.0164889175629757
1110,0.05910455590101069,0.1027227314534848,0.1618272873544955,2.745486708308251
1115,0.031345598000758756,0.14382002443513034,0.1751656224358891,3.843900565027498
1120,0.006924624415217899,0.18340418884870163,0.19032881326391954,4.901872794924444
1125,-0.010233819539992988,0.18400614398167614,0.17377232444168314,4.917961345074883
1130,-0.018085236416026485,0.2037368079229177,0.1856515715068912,5.44530592431541
1135,-0.01656078358328517,0.17907119698732982,0.16251041340404465,4.786064235375081
1140,-0.006812270946302575,0.17169287440865405,0.16488060346235148,4.588862639557529
1145,0.008781843914910995,0.14544773572782047,0.15422957964273146,3.887404662473229
1150,0.027149509600990336,0.11971806338386906,0.1468675729848594,3.199723635791879
1155,0.04632837140059032,0.10783529154384934,0.15416366294443967,2.882130911347956
1160,0.06402422138158062,0.08339743705826418,0.14742165843984478,2.2289765051089936
1165,0.07741975350390418,0.08054179638279084,0.15796154988669503,2.1526533446236575
1170,0.08664272845895378,0.06758098270251614,0.15422371116146993,1.8062476252219388
1175,0.08832953694158899,0.06773358962918163,0.15606312657077062,1.8103263747141638
1180,0.0830699036548961,0.07013885394268529,0.1532087575975814,1.87461225486215
1185,0.07013227034059508,0.08380585055854954,0.1539381208991446,2.2398922373978576
1190,0.05182421106402137,0.11225090473994054,0.1640751158039619,3.0001477043923317
1195,0.03178114922055591,0.12730752405938117,0.1590886732799371,3.4025683529544284
1200,0.012630902627691811,0.13020628568330456,0.14283718831099637,3.4800440138566064
1205,-0.003528490382558414,0.13434081974289058,0.13081232936033216,3.5905483603145405
1210,-0.015428600724740213,0.1379645884686391,0.12253598774389889,3.687401400822238
1215,-0.021923775260076078,0.13243491302520255,0.11051113776512647,3.53960888969642
1220,-0.023281940128067096,0.14164644952953706,0.11836450940146996,3.7858070843696074
1225,-0.0195585701250824,0.13008311277703694,0.11052454265195454,3.4767519520880334
1230,-0.011455078111532388,0.13782469447952578,0.12636961636799338,3.683662432024891
1235,0.00044489635321704954,0.11886230093371511,0.11930719728693216,3.1768515372882398
1240,0.014129255989424695,0.11946390970530277,0.13359316569472746,3.192930830183051
