#"Step","Potential Energy (kJ/mole)","Kinetic Energy (kJ/mole)","Total Energy (kJ/mole)","Temperature (K)"
5,-0.026086729224004283,0.9027809241723656,0.8766941949483613,24.1287687034668
10,-0.027273761103406687,1.5350539497172706,1.507780188613864,41.027629969061486
15,-0.029121056217535805,2.697014877810301,2.6678938215927652,72.08354367495342
20,-0.030975586493887507,2.6466174980086272,2.61564191151474,70.7365649252527
25,-0.032630642820795086,2.496186708680248,2.463556065859453,66.7159774001984
30,-0.034063103612832865,2.2460769139642665,2.2120138103514337,60.03125331533142
35,-0.034259213946349766,3.0652294728647846,3.030970258918435,81.92487345876043
40,-0.03369385190494539,4.083862987045727,4.050169135140782,109.1500526790724
45,-0.03346739324848642,2.9407387925055715,2.907271399257085,78.59759133338939
50,-0.03428922391251631,2.6769785728700617,2.6426893489575454,71.54803018033857
55,-0.03630223301915651,3.345790462705664,3.3094882296865076,89.4234714572642
60,-0.03962456602159543,4.174468554664458,4.134843988642863,111.5716820309807
65,-0.04319752760610273,4.104854737656009,4.061657210049906,109.71110252139233
70,-0.048655060150488,4.357048302470646,4.308393242320157,116.4515198596228
75,-0.05469713277592193,4.27439653770856,4.219699404932638,114.24247305604086
80,-0.06349572249380982,4.21656561278971,4.1530698902959,112.69681676899235
85,-0.07554014201535138,5.746322490478001,5.670782348462649,153.5828710552158
90,-0.08966125917409926,6.1780749124991114,6.088413653325012,165.1223864007128
95,-0.10613961258170036,7.182355564811329,7.076215952229628,191.96395440927836
100,-0.13030866906952032,9.166138958564781,9.03583028949526,244.9848472793148
105,-0.15916243363039442,7.4191923742506605,7.260029940620266,198.2939293150592
110,-0.18652949285476011,7.477879017890994,7.291349525036234,199.86245653186825
115,-0.22745002145523108,8.669610523759495,8.442160502304263,231.7140531837323
120,-0.2818889185399867,10.49588608259453,10.213997164054543,280.5252092106753
125,-0.34467632087318373,9.38787856353769,9.043202242664506,250.91131681088396
130,-0.4050100032295546,9.464313752038517,9.059303748808963,252.95421219642077
135,-0.44667006013270866,9.036230601917964,8.589560541785255,241.5127660619894
140,-0.4936516619484241,11.472893296726975,10.97924163477855,306.63783571863115
145,-0.5350960384908818,9.753781775526454,9.218685737035571,260.69086989351734
150,-0.608267536477176,12.168042132752435,11.55977459627526,325.21718872647125
155,-0.7267918747495559,12.464353369229215,11.73756149447966,333.1367460606506
160,-0.8263350950294176,12.776907445151167,11.95057235012175,341.49042833651436
165,-0.8220642513964973,11.347867180541424,10.525802929144927,303.2962429151506
170,-0.6798872068851458,11.297967505767508,10.618080298882361,301.9625664065316
175,-0.46139128267658813,11.417976329872847,10.956585047196258,305.17006125016417
180,-0.22560969745910744,13.280221843203734,13.054612145744626,354.9425919462721
185,-0.11576425591101008,12.986036885204175,12.870272629293165,347.0798639936208
190,-0.35544615977710375,13.874769330062794,13.51932317028569,370.833156766083
195,-0.5339629021977876,14.208832093854769,13.674869191656981,379.76170514825776
200,-0.6931866212894613,13.174937815035783,12.481751193746321,352.12864905512976
205,-0.717111992735248,10.34291388374923,9.625801891013982,276.4366970310645
210,-0.7050945674176551,10.841794839021025,10.13670027160337,289.77036731364507
215,-0.6404679736828506,9.781426849366122,9.140958875683271,261.4297441592526
220,-0.5182919234401638,10.990027983388224,10.47173605994806,293.7322180338547
225,-0.13726157240080994,14.501917291604308,14.364655719203498,387.5950396345747
230,0.9255634906371186,13.902468464586317,14.828031955223436,371.57347592027537
235,2.8545356885497384,8.71287430372863,11.567409992278368,232.87037108119995
240,3.5058301756611114,9.574385244886642,13.080215420547754,255.8961104141002
245,1.61078378565046,11.7169635889739,13.32774737462436,313.16114106473435
250,0.07506419638071389,11.69013413284906,11.765198329229774,312.4440659428054
255,-0.6607122704250336,9.655036372403032,8.994324101977998,258.0516858692427
260,-0.8168707220888372,6.906347787708977,6.08947706562014,184.58705084857672
265,-0.8359968326247781,9.413154001379667,8.577157168754889,251.58685744010916
270,-0.8203523824636548,9.307267974773975,8.48691559231032,248.75682484140302
275,-0.7899682962989739,8.455305070845219,7.665336774546245,225.9862774113313
280,-0.7710127141648959,8.278435204870213,7.507422490705317,221.2590484984735
285,-0.7578373056222504,6.52936242638692,5.77152512076467,174.5113034060044
290,-0.7341244972565991,7.2686902674703955,6.5345657702137965,194.27143567717619
295,-0.6743861130253838,7.478108924084776,6.803722811059392,199.86860127111197
300,-0.6214982795218449,6.510241990817192,5.888743711295347,174.00026849707072
305,-0.5806736980061478,7.295163293909301,6.714489595903153,194.9789844464534
310,-0.536301139148225,7.375761617561898,6.839460478413673,197.1331486043675
315,-0.4740329128845995,5.703272575817065,5.229239662932466,152.432269169703
320,-0.4050844271924725,6.832670624328703,6.427586197136231,182.61786963713283
325,-0.33246335365464247,7.777778519203833,7.445315165549191,207.87791798847402
330,-0.27386374892875526,7.520898315454423,7.247034566525668,201.01224010936818
335,-0.2373929315294918,8.36286009613741,8.125467164607919,223.51548593490807
340,-0.2034630332171881,8.760336478597473,8.556873445380285,234.13890014391106
345,-0.1806125884054217,8.607247356139352,8.42663476773393,230.04726292838717
350,-0.16627972808301325,8.859676048747021,8.693396320664007,236.7939645643713
355,-0.16011880115310875,11.402869769871486,11.242750968718378,304.766305829089
360,-0.1580525764223146,13.13084818572559,12.972795609303276,350.95025855156155
365,-0.17179970817255696,11.426344688261231,11.254544980088674,305.39372368982663
370,-0.19471808385085182,9.912288538444042,9.71757045459319,264.9273052434113
375,-0.22315797079686556,7.877605115570741,7.654447144773876,210.54599923575964
380,-0.25478241661328316,6.380245442076838,6.125463025463555,170.52583015569735
385,-0.2884627281956448,6.577626543147545,6.2891638149519,175.80126609663378
390,-0.3371029952873746,7.704669955300111,7.367566960012736,205.92393382526996
395,-0.4185947144336389,6.520724283682526,6.102129569248887,174.28043039821134
400,-0.5381067950660964,7.015834174059071,6.477727378992975,187.51331083223965
405,-0.6789220993379314,6.794613300410946,6.115691201073014,181.60070551492197
410,-0.8246890732518499,8.736374828423514,7.911685755171664,233.49847332570945
415,-0.6841812206577045,6.679405244615362,5.9952240239576575,178.52152156604072
420,0.422815511341164,5.844457575337293,6.267273086678457,156.20574300660945
425,1.5332127915465845,4.3063464587107365,5.839559250257321,115.09640365350258
430,0.5679959107410129,4.84685226258587,5.414848173326883,129.54258785543468
435,-0.6079638198486268,7.932142501542106,7.324178681693479,212.0036285858715
440,-0.8309690476791566,6.162731885381567,5.331762837702411,164.71231088558199
445,-0.6707086889493082,7.332095660046619,6.66138697109731,195.96608164394465
450,-0.4807956585025617,5.656199914153774,5.1754042556512125,151.17415068811087
455,-0.34684668072756686,5.236815535525825,4.889968854798258,139.96519799669477
460,-0.25925988609277684,5.281157144368587,5.02189725827581,141.15032319712748
465,-0.20557239088276782,5.628630962973921,5.423058572091153,150.43731096475753
470,-0.1778591763555962,3.667115205273636,3.48925602891804,98.0115687292922
475,-0.16558313926204188,3.915187009810885,3.7496038705488433,104.64182312796409
480,-0.15653358728060887,2.708992875737855,2.552459288457246,72.40368152211663
485,-0.15133686722544884,2.1635895455551286,2.0122526783296797,57.826600359104646
490,-0.15595993458985674,2.2733271406445543,2.1173672060546975,60.75957443851918
495,-0.15437904120557308,2.9007410507094153,2.746362009503842,77.52856535530373
500,-0.15367475172500547,2.561621462806087,2.4079467110810815,68.4648624344253
505,-0.15724615659380367,2.7599862615756745,2.602740104981871,73.76658981951488
510,-0.1643438050567802,2.929067111898352,2.7647233068415717,78.28564047774793
515,-0.16859684631286212,4.85285130348567,4.684254457172807,129.70292517143037
520,-0.16712572028758182,5.249339924115406,5.082214203827824,140.29993931359556
525,-0.15986525058012635,5.323891579282553,5.164026328702427,142.2924932054911
530,-0.14468690374597615,7.835667894006287,7.690980990260311,209.42513647481636
535,-0.12781930759156493,7.184572233404879,7.0567529258133135,192.0231996617576
540,-0.1130936102096874,6.222913469402999,6.109819859193312,166.3207936106602
545,-0.102601365778431,4.53561728127807,4.43301591549964,121.22416123018412
550,-0.09176735876789126,3.5786570388795367,3.4868896801116454,95.6473333099265
555,-0.08646085804552475,3.2879193007391874,3.2014584426936628,87.87673974827277
560,-0.08213433704506792,3.8590884620903796,3.776954125045312,103.14246836059417
565,-0.07544765239978853,4.0461062719292435,3.970658619529455,108.14092297589053
570,-0.0672168808316142,3.5502888179123397,3.4830719370807257,94.88913137641329
575,-0.06144525324832493,4.0807552940654555,4.019310040817131,109.06699287672767
580,-0.054781062867970236,4.035050510717304,3.980269447849334,107.84543389544922
585,-0.049156957845314306,6.514963836322872,6.465806878477558,174.1264700095412
590,-0.0429542221219196,6.985637685267514,6.9426834631455945,186.70624449510336
595,-0.03845206340329836,6.066221179554936,6.027769116151638,162.13285396979265
600,-0.035174355229869295,5.60584789175598,5.570673536526111,149.82838421292536
605,-0.03153269158459334,7.420339583598276,7.388806892013682,198.3245909609379
610,-0.02884675340775186,4.964388420172846,4.935541666765094,132.68399534951783
615,-0.026719522996786673,6.225071155497011,6.198351632500224,166.37846242853516
620,-0.024645414437719036,10.524402897624233,10.499757483186514,281.28738264122495
625,-0.023685594905753463,10.70859735299398,10.684911758088226,286.21037701458533
630,-0.022062564970265333,10.610499094501966,10.5884365295317,283.5884893273409
635,-0.021706174638253944,11.578578643062285,11.55687246842403,309.4625047039758
640,-0.02164015888157912,14.691339143119869,14.66969898423829,392.6577474524115
645,-0.021618146922144418,16.204003047057167,16.182384900135023,433.08695512275176
650,-0.02211282948768169,15.370004782982589,15.347891953494907,410.7965514665196
655,-0.023079400388746885,16.621349647550296,16.59827024716155,444.24144379530395
660,-0.026381299547096657,18.475649183608823,18.449267884061726,493.8016010987158
665,-0.03163467267883983,19.722019899113803,19.690385226434962,527.1135485579116
670,-0.038554394699185764,16.94743546260398,16.908881067904794,452.9567910055088
675,-0.04660136534542134,18.586157830150583,18.539556464805163,496.75518319238245
680,-0.056578838723069,22.18077198285796,22.12419314413489,592.8290048101782
685,-0.06661509555449169,20.805255195472824,20.73864009991833,556.065349839313
690,-0.07413609521327932,18.148241139005123,18.074105043791842,485.05091444997055
695,-0.08334479794450936,20.156366056139326,20.073021258194817,538.7223870695543
700,-0.09666945885920562,19.947629757236587,19.85096029837738,533.1434589582196
705,-0.10848983131920464,16.50806627384905,16.399576442529845,441.2137011295053
710,-0.1242849388512816,14.438794217952672,14.31450927910139,385.9079392504051
715,-0.1354537517227671,12.61404790344351,12.478594151720742,337.13765557869476
720,-0.1441011636686497,11.681149813179726,11.537048649511076,312.20394060845797
725,-0.15794275559891233,13.326574351185844,13.168631595586932,356.1814627664008
730,-0.16157223102340534,11.243479796446179,11.081907565422775,300.50626477211085
735,-0.1612811347699775,11.743255394068441,11.581974259298464,313.86384630244686
740,-0.15736819994808574,10.410522696387929,10.253154496439842,278.2436884713973
745,-0.15910548543783742,12.763488044651083,12.604382559213246,341.13176589456856
750,-0.16169559461218821,12.603302014949367,12.441606420337179,336.8504485154462
755,-0.16174146595518474,13.038980297116971,12.877238831161787,348.4948909466852
760,-0.15634494801166549,12.284009108509823,12.127664160498156,328.31665644933634
765,-0.14943368653139857,10.60462653458757,10.455192848056171,283.43153248866867
770,-0.1480263395694483,9.808570619655665,9.660544280086217,262.15522000562896
775,-0.1495357516989244,10.121444399578172,9.971908647879248,270.5174470609363
780,-0.15061351093469788,8.704632027392186,8.55401851645749,232.65007845650322
785,-0.16071282419601843,8.27938469383722,8.118671869641203,221.2844256404334
790,-0.17508078262892732,8.093236833667591,7.918156051038664,216.30922230769139
795,-0.19883905261926202,9.626701809959197,9.427862757339936,257.2943835324127
800,-0.2308358838328154,9.790091200972602,9.559255317139787,261.66131765652153
805,-0.2658751707292742,9.607459768779652,9.341584598050378,256.78009845109085
810,-0.31954969315589316,10.156529121535783,9.83697942837989,271.4551619798872
815,-0.3870507201520811,13.108324213868272,12.721273493716192,350.3482567893657
820,-0.4587661819841105,13.032712102493091,12.573945920508981,348.3273599164891
825,-0.5439849576484324,15.643427024662426,15.099442067013994,418.10435101259924
830,-0.6399857261754063,13.763177401967605,13.1231916757922,367.85062163481496
835,-0.7510687812600332,13.153694195027693,12.40262541376766,351.56086745953456
840,-0.8344983525301836,13.151044453390249,12.316546100860066,351.4900473952399
845,-0.7593606786431771,14.271479771035928,13.512119092392751,381.4360995356884
850,-0.34132374087630385,14.231273762549245,13.889950021672941,380.36150718078886
855,-0.05385942506363957,12.010079303478971,11.95621987841533,320.99529117720834
860,-0.36050905755312734,15.72237111640229,15.361862058849162,420.2143022522565
865,-0.7770947324619529,18.173423900490697,17.396329168028743,485.72397810354414
870,-0.7905170668312586,17.64188673610504,16.85136966927378,471.5175001493096
875,-0.5769421693950872,18.740392064549027,18.16344989515394,500.87742599604826
880,-0.3624510684624669,19.354947420605775,18.99249635214331,517.3027443038803
885,-0.2223880663953648,19.81148194040867,19.589093874013304,529.5046147007001
890,-0.13891873376756428,20.932272672497945,20.79335393873038,559.4601660592576
895,-0.08981068192278793,17.058954585450312,16.969143903527524,455.9373802593629
900,-0.06103833562851004,17.865190699449577,17.804152363821068,477.4857805347723
905,-0.04430825140366613,15.235740147643476,15.19143189623981,407.2080392988276
910,-0.035323258352706936,15.705925365809312,15.670602107456606,419.7747540721965
915,-0.028941665356800667,15.445889525879421,15.41694786052262,412.8247350052428
920,-0.025338480228539823,16.425188481908798,16.399850001680257,438.9986132617442
925,-0.022775546192548676,14.883848665917911,14.861073119725363,397.8029799495061
930,-0.02120894206872716,13.151894505304249,13.130685563235522,351.51276686733956
935,-0.020407690224790068,14.043748835171959,14.02334114494717,375.34949875474786
940,-0.019971763256137785,11.72773962920802,11.707767865951883,313.4491539983115
945,-0.019091984201873094,11.150317940226898,11.131225956025025,298.01631309002204
950,-0.01955462593120802,11.894383959172032,11.874829333240823,317.9030833911286
955,-0.020538403897780298,11.097832682679062,11.077294278781281,296.61353130121256
960,-0.021689327480078822,10.492472574525339,10.47078324704526,280.43397584002736
965,-0.02326619919705797,9.682648624954432,9.659382425757373,258.78968291520954
970,-0.025320584633084255,9.753380863519515,9.728060278886431,260.680154654829
975,-0.028266909533761084,11.94731788769714,11.91905097816338,319.31785688018863
980,-0.03308614806381288,9.267265704801746,9.234179556737933,247.6876778380385
985,-0.03891201453910788,8.720457124694645,8.681545110155538,233.0730383377955
990,-0.04777955437887744,10.340682665251991,10.292903110873114,276.3770629010057
995,-0.05940412015267933,9.488457662687487,9.429053542534808,253.59951031919647
1000,-0.0767254254435772,9.004542264257344,8.927816838813767,240.66582684391562
1005,-0.09260756174884024,8.890242157871588,8.797634596122748,237.61090980267232
1010,-0.11749163660738028,11.86584670065206,11.74835506404468,317.14036356417756
1015,-0.14963208563611438,10.009824687541835,9.860192601905721,267.53416934387405
1020,-0.19533632587501412,13.008057987649817,12.812721661774804,347.6684254854283
1025,-0.2443572906495241,10.494186743778863,10.249829453129339,280.47979071308174
1030,-0.2915633765236253,11.435806709316385,11.14424333279276,305.6466166247503
1035,-0.33449872924023555,10.343623659687157,10.009124930446921,276.45566732494086
1040,-0.3634106432147062,8.822868300940645,8.459457657725938,235.81019806074275
1045,-0.37958390115380325,7.620301139047649,7.240717237893846,203.66899511463293
1050,-0.38193480981190436,6.2895917694536525,5.9076569596417485,168.10291509371822
1055,-0.357205519784786,9.107358486048446,8.75015296626366,243.4138122832803
1060,-0.31579476266535234,9.698372891738693,9.382578129073341,259.20994788327687
1065,-0.26482704281730396,7.9961818942387435,7.73135485142144,213.71521957424358
1070,-0.20647051282107814,8.339807650577248,8.13333713775617,222.89935957237958
1075,-0.15540707240674267,9.285381802014827,9.129974729608085,248.17186963669076
1080,-0.12304417122689942,8.157645744328708,8.034601573101808,218.03068946120825
1085,-0.09694959953137057,7.961885492785996,7.864935893254625,212.7985742222461
1090,-0.07667475685846781,7.894119455658842,7.817444698800374,210.98738061811602
1095,-0.060245845973659125,8.223371722148086,8.163125876174426,219.7873580772037
1100,-0.04705008682082155,7.212296838609382,7.165246751788561,192.76419957487346
1105,-0.03616034425007631,7.687607239112952,7.651446894862876,205.46789590808615
1110,-0.027955811612928046,9.386053559702319,9.35809774808939,250.8625396444114
1115,-0.021377829840614964,9.376077809807198,9.354699979966583,250.59591619743986
1120,-0.016714851726455208,13.328768459789579,13.312053608063124,356.2401050544602
1125,-0.013679552673522999,11.88946627377667,11.875786721103147,317.7716476349179
1130,-0.012121806381322238,12.395911749895594,12.383789943514271,331.307496063919
1135,-0.01119875139409033,14.996284675407505,14.985085924013415,400.8080749778513
1140,-0.011086699635690967,12.846155191552075,12.835068491916385,343.3412238190126
1145,-0.01147519991258721,11.422431298676624,11.410956098764037,305.2891299067666
1150,-0.01246070151704327,13.533160141473765,13.520699439956722,361.7029138934834
1155,-0.014046244913845837,14.505999179600284,14.491952934686438,387.7041369013548
1160,-0.016640150514347946,14.169395421131433,14.152755270617085,378.7076749521191
1165,-0.020019657617356076,13.06716731682301,13.047147659205654,349.24824988540064
1170,-0.024529677621575634,11.357420235488378,11.332890557866802,303.5515689273145
1175,-0.030654869525779834,11.466684658373675,11.436029788847895,306.4718964583089
1180,-0.03946865526321686,13.301028337838297,13.26155968257508,355.4986904227963
1185,-0.05442267237034949,11.391555612726034,11.337132940355684,304.4639105596192
1190,-0.08065959508096077,12.331560626308892,12.250901031227931,329.5875733946898
1195,-0.1269621028715083,12.19380142177763,12.066839318906123,325.9056613228816
1200,-0.213941480755274,14.978154069843013,14.76421258908774,400.32349541219367
1205,-0.375634283430923,13.76557115671567,13.389936873284746,367.91459989698507
1210,-0.6378023343902531,14.78988962296279,14.152087288572536,395.2917217313048
1215,-0.8290536388722518,13.485852731584338,12.656799092712086,360.4385212588821
1220,0.5911264320445047,11.277118533666439,11.868244965710943,301.40533262803444
1225,4.707651615616834,11.359123594642355,16.066775210259188,303.5970948771266
1230,2.5983315234834343,14.829967965940469,17.428299489423903,396.36290194993114
1235,-0.4296137489899773,15.64417710957018,15.214563360580202,418.12439865069456
1240,-0.835876832887119,17.977507436742325,17.141630603855205,480.4876877562272
